station_no,SAMARAN,DAYANIDHI MARAN,B. PARTHASARATHY,VINOJ,M.L.RAVI,C.S.KARNAN,Dr.R.KARTHIKEYAN,K.CHANDRASEKAR,SENTHILKUMAR,A.SELVA KUMAR,DILAVAR ALI,AGNI AALVAR,P.ARJUNAN,ANBAZHAGAN G,UDAYA KUMAR V,G.OMPRAKASH,S.KANDASAMY,L.KASINATHAN,S.SATHISH KUMAR,S.SATHISH KUMAR,DHAYANIDHI SURESH,V.V.TAMILARASAN,M.NAGARAJ,J.NAGARAJ,B.PARTHASARATHY,MANJUNATHA.R,R.MINNAL RAJ,RANJITHKUMAR.S,RAVI BALARAMAN,N.RAMAN,R.VIJAY,total_valid,nota,total
1,0,168,16,132,1,0,11,0,0,0,3,2,0,2,0,0,0,1,1,1,0,0,1,0,0,0,1,1,0,1,0,342,4,345
2,1,251,16,187,0,0,12,0,0,0,2,1,0,1,1,0,0,0,2,2,0,0,0,0,0,0,0,1,0,0,0,477,6,481
3,2,157,20,292,0,0,8,0,1,0,1,0,0,1,0,0,0,1,0,0,1,0,0,0,0,0,1,0,0,0,0,485,7,493
4,0,91,10,192,0,0,2,1,0,0,1,0,0,0,0,1,1,0,0,0,1,1,0,0,0,0,0,0,0,0,1,302,2,305
5,1,190,35,334,1,0,13,0,0,0,0,1,0,1,0,0,0,0,0,0,0,0,0,0,0,0,0,0,0,0,0,576,21,598
6,1,243,26,202,2,0,22,0,0,0,1,0,0,1,0,1,1,0,0,0,0,1,0,0,0,0,0,0,0,0,0,501,6,508
7,1,241,28,264,2,1,30,1,0,0,0,0,0,1,0,0,0,1,1,1,0,0,0,0,1,0,0,0,0,0,0,573,17,589
8,1,74,7,86,0,0,10,0,0,0,1,0,0,1,0,0,2,0,0,0,0,1,0,0,0,0,0,0,0,0,0,183,3,186
9,0,239,24,269,0,0,18,0,0,0,2,0,0,1,0,0,1,0,0,0,0,0,0,0,0,0,1,0,0,0,0,555,8,563
10,0,180,27,209,3,2,17,0,0,0,1,2,0,1,0,2,0,0,0,0,0,1,0,0,0,0,0,0,0,0,0,445,10,455
11,5,231,26,436,1,0,23,0,0,2,1,1,0,2,0,1,0,1,2,2,0,0,0,0,0,0,0,0,0,0,1,735,10,744
12,1,263,30,307,0,1,16,1,0,1,1,0,0,1,0,1,0,2,0,0,0,0,0,0,0,0,0,1,0,1,0,627,14,642
13,2,111,13,307,1,0,13,0,0,0,1,0,0,1,0,0,0,0,1,1,1,0,0,0,0,0,0,0,3,0,0,455,4,459
14,4,136,30,448,1,0,11,1,1,0,0,0,0,0,1,0,0,0,0,0,1,0,0,0,2,0,0,0,0,1,0,637,12,649
15,0,64,3,383,1,0,4,1,0,0,1,0,0,0,2,0,0,0,1,1,0,0,0,0,0,0,0,0,0,0,1,462,7,468
16,1,114,12,593,2,1,15,0,1,0,1,1,0,0,1,0,0,0,0,0,0,0,1,0,0,0,0,0,0,0,1,744,9,754
17,1,112,7,335,2,1,4,0,0,0,0,0,0,0,0,1,0,1,0,0,0,1,0,1,0,0,1,0,0,0,0,467,5,472
18,1,57,11,224,0,0,1,0,0,0,0,0,0,0,0,0,0,0,0,0,0,0,0,0,0,1,0,0,1,0,1,297,4,301
19,5,411,60,21,0,0,39,1,0,0,2,0,0,2,0,2,0,3,2,2,0,0,1,0,0,0,0,0,0,2,0,553,2,553
20,0,111,16,267,1,1,13,0,0,0,0,0,0,0,0,0,0,0,0,0,0,0,0,0,0,0,0,0,0,0,0,409,2,412
21,1,469,54,189,2,0,21,1,0,0,2,0,0,1,1,0,1,2,0,0,0,0,0,1,0,0,0,0,0,1,0,746,6,752
22,1,113,24,149,0,0,13,0,0,0,0,0,0,2,1,0,0,0,0,0,0,1,0,0,0,0,0,0,0,0,0,304,5,309
23,0,232,38,156,1,0,24,0,1,0,0,0,0,2,0,0,1,1,2,2,0,1,1,0,0,0,1,0,0,0,0,463,4,466
24,2,185,33,274,1,0,7,0,0,0,1,2,0,0,0,0,1,0,0,0,0,0,0,0,0,0,1,0,0,0,1,508,10,518
25,0,114,20,400,0,2,8,1,0,1,0,0,0,1,0,0,0,0,0,0,0,0,0,0,0,0,0,0,0,1,0,548,11,559
26,4,526,28,84,1,2,22,0,0,1,2,5,0,1,0,1,1,4,1,1,0,0,0,1,0,0,0,0,0,0,0,685,5,689
27,0,122,26,207,0,0,5,0,0,0,2,1,0,0,0,0,0,0,0,0,1,0,0,0,0,1,0,0,0,1,0,366,3,369
28,0,144,35,158,0,0,9,0,0,0,1,1,0,0,0,0,0,1,0,0,0,0,1,0,0,0,1,0,1,0,1,353,6,359
29,9,554,63,72,1,1,32,0,0,0,2,1,0,2,1,0,0,1,1,1,0,0,1,1,0,0,0,1,0,0,2,746,12,758
30,8,771,107,34,1,3,94,0,0,1,6,0,0,4,0,1,1,4,0,0,0,0,0,2,0,1,0,0,1,0,1,1040,5,1045
31,0,161,12,237,0,1,6,0,0,1,1,1,0,1,0,0,0,0,1,1,0,1,0,0,0,0,0,0,0,0,1,425,6,430
32,0,94,12,254,0,1,12,0,1,0,1,2,0,1,0,0,0,0,0,0,0,0,0,0,0,0,0,0,0,2,0,380,6,386
33,1,262,14,218,0,0,29,1,0,0,0,0,0,0,0,0,0,0,1,1,0,0,0,0,0,0,0,0,0,0,0,527,2,528
34,0,88,7,336,2,1,2,0,0,1,0,1,0,0,0,0,0,0,1,1,0,0,0,0,0,0,0,0,0,0,1,441,7,447
35,1,134,19,456,2,1,10,0,3,0,1,0,0,1,0,0,0,2,1,1,0,1,0,1,0,0,1,0,0,0,2,637,7,643
36,2,135,13,343,2,0,4,0,0,0,0,0,0,2,0,1,0,0,0,0,1,0,0,1,0,0,0,0,1,0,0,505,9,514
37,0,89,8,229,1,0,7,1,0,0,1,0,0,1,0,0,0,0,0,0,0,0,0,0,0,0,0,0,0,0,0,337,5,342
38,1,302,62,238,1,1,50,0,0,0,0,1,1,1,0,0,0,1,0,0,0,0,0,0,2,0,1,0,0,1,0,663,8,671
39,0,537,21,54,1,1,14,0,0,0,1,2,0,2,0,0,0,0,0,0,1,0,0,0,0,0,0,1,0,0,1,636,10,646
40,2,393,28,24,0,1,13,0,0,0,1,0,0,0,0,1,1,0,0,0,1,0,0,0,0,0,0,0,0,0,0,465,6,472
41,1,316,32,130,0,0,19,0,0,0,2,0,0,2,0,2,0,0,1,1,0,0,0,0,0,0,0,0,0,0,0,506,8,514
42,3,536,41,108,8,1,25,0,0,1,4,0,0,2,0,0,0,0,0,0,0,0,0,0,0,0,0,0,0,0,0,729,10,739
43,2,265,39,47,1,3,27,1,0,0,2,0,0,10,0,0,0,0,0,0,0,0,0,0,1,0,0,0,0,0,0,398,8,406
44,0,255,37,107,0,0,19,0,0,0,1,1,0,2,0,0,1,2,0,0,0,0,0,0,0,0,1,0,0,0,1,427,14,441
45,1,312,14,113,2,1,14,1,0,0,0,0,0,1,1,0,0,0,0,0,0,0,1,0,0,0,0,0,0,0,0,461,6,467
46,2,233,36,200,7,1,24,0,0,0,1,0,0,2,0,1,2,2,0,0,1,0,0,0,0,0,0,0,0,0,0,512,10,523
47,0,387,34,155,4,1,26,0,1,0,0,3,0,0,1,0,0,0,0,0,0,0,0,0,0,0,0,1,0,2,0,615,16,631
48,1,376,22,105,1,1,27,0,0,0,2,0,0,3,0,1,1,0,0,0,0,0,0,0,1,0,0,1,0,0,2,544,7,551
49,0,343,25,80,0,0,19,0,0,0,0,0,0,0,0,0,1,0,0,0,0,0,0,0,2,0,0,0,0,0,0,470,5,475
50,0,438,40,145,0,1,22,0,0,0,3,0,1,4,0,0,1,0,0,0,0,0,0,0,0,0,1,0,0,1,0,657,9,666
51,1,427,30,160,1,0,17,0,0,0,1,1,1,0,0,1,0,0,0,0,2,0,0,0,1,0,0,0,0,1,0,644,5,649
52,4,218,27,375,2,1,27,0,0,0,0,1,0,1,0,1,2,0,1,1,0,0,0,1,0,0,0,0,0,0,1,663,11,673
53,0,144,10,372,4,0,14,0,0,0,1,0,0,0,0,0,1,1,0,0,0,0,0,0,0,0,1,0,0,0,0,548,12,560
54,3,624,38,71,0,3,31,2,0,0,2,0,1,1,0,0,0,0,0,0,0,0,0,0,0,1,0,0,0,0,0,777,8,785
55,1,535,47,82,0,0,20,0,0,0,4,1,0,2,0,0,1,0,0,0,0,0,1,0,0,0,0,0,0,0,0,694,3,697
56,0,77,8,263,2,0,7,0,0,0,1,0,0,2,0,0,1,0,0,0,1,0,1,0,0,0,0,0,0,0,0,363,3,366
57,0,300,32,112,0,0,26,0,0,0,0,0,0,1,0,1,2,2,0,0,0,0,0,0,0,1,0,0,0,0,0,477,11,489
58,3,295,56,252,3,0,29,0,0,0,0,1,0,1,0,0,0,0,1,1,1,0,0,0,0,0,0,0,1,1,0,645,8,652
59,0,285,16,19,0,0,13,0,0,0,2,0,0,0,0,0,0,0,0,0,0,0,0,0,0,0,0,1,0,0,0,336,2,338
60,0,100,15,353,2,0,16,0,0,0,0,0,1,0,0,0,0,0,0,0,0,0,0,0,0,0,0,0,1,1,0,489,7,496
61,0,285,15,260,0,0,11,0,0,1,1,0,0,1,0,0,2,2,0,0,0,0,0,0,1,1,1,0,0,0,0,581,9,590
62,0,613,28,74,0,0,29,0,0,0,0,1,0,2,0,0,0,3,0,0,0,0,0,0,0,0,0,0,0,0,0,750,8,758
63,0,465,9,171,2,0,14,0,0,0,1,3,1,0,1,1,2,0,2,2,2,0,0,0,0,0,1,0,0,1,0,678,6,682
64,0,297,3,11,0,0,7,0,1,0,0,0,0,0,0,0,0,0,0,0,1,0,0,0,0,1,0,0,0,0,0,321,1,322
65,4,405,26,182,1,1,25,0,0,2,1,1,0,1,0,0,2,0,0,0,2,0,0,0,0,0,0,0,0,0,1,654,7,661
66,1,383,8,10,0,0,10,0,1,0,1,3,0,1,1,0,0,0,0,0,1,0,0,0,0,0,0,0,0,0,0,420,2,422
67,0,543,4,25,0,1,4,0,0,0,1,1,0,2,0,0,0,0,1,1,1,0,0,0,0,0,1,0,0,0,0,585,7,591
68,1,543,26,58,2,2,30,0,0,0,0,1,0,4,1,0,0,2,1,1,0,0,0,0,1,1,0,0,0,0,0,674,4,677
69,1,486,34,99,3,0,24,0,0,0,1,1,0,2,0,0,1,3,0,0,0,1,1,0,2,0,0,0,1,0,0,660,8,668
70,3,383,46,40,0,3,31,0,0,0,1,1,0,2,1,0,1,0,0,0,0,1,0,0,1,0,1,0,0,0,0,515,4,519
71,4,411,31,136,0,1,38,0,0,0,1,0,1,2,0,1,0,0,0,0,0,0,0,0,0,0,1,0,0,0,0,627,14,641
72,1,272,8,41,1,0,18,0,0,0,2,0,0,4,0,0,0,0,0,0,0,0,0,0,0,0,0,0,0,0,0,347,8,355
73,2,319,22,79,0,0,24,1,0,1,3,0,0,2,0,0,0,0,0,0,2,0,0,0,0,0,0,0,0,1,0,456,6,462
74,4,368,25,98,0,0,17,0,1,0,0,1,0,1,0,0,0,0,0,0,0,0,0,0,0,0,0,0,0,1,0,516,9,525
75,1,181,24,77,0,0,8,1,1,0,1,0,0,0,0,0,0,1,0,0,0,0,0,0,0,0,0,0,1,0,0,296,10,306
76,0,473,112,39,1,1,27,0,0,0,2,1,0,0,2,0,2,6,0,0,0,0,0,0,0,0,0,0,1,0,0,667,9,677
77,2,362,30,140,0,0,39,1,0,0,1,0,0,2,0,0,0,0,1,1,0,0,0,0,0,0,0,1,0,1,0,581,10,590
78,1,227,20,78,0,0,14,0,0,0,0,1,0,1,0,0,1,0,0,0,0,0,0,0,0,0,0,0,0,0,0,343,3,346
79,6,471,10,64,0,0,24,0,0,0,1,0,0,1,1,0,0,0,0,0,0,0,1,0,0,0,0,0,0,0,0,579,9,588
80,3,347,20,100,1,1,13,0,0,0,5,2,0,0,0,0,1,0,1,1,1,0,0,0,0,0,0,0,0,1,1,498,8,505
81,6,694,61,36,1,0,42,0,0,0,0,1,0,2,0,0,0,0,0,0,0,0,0,0,0,0,0,0,1,0,0,844,1,845
82,1,431,61,73,0,0,56,1,0,0,4,0,0,2,0,1,0,2,0,0,0,0,0,0,0,0,0,0,0,0,0,632,5,637
83,6,558,97,78,1,0,87,0,0,1,4,2,0,5,1,0,1,1,1,1,2,1,0,0,0,1,0,0,0,0,0,848,7,855
84,2,631,34,93,1,0,22,0,0,0,3,1,1,2,0,2,0,1,0,0,0,0,0,0,0,0,2,0,1,2,0,798,12,810
85,4,479,41,120,2,1,52,0,0,0,1,1,0,6,0,0,1,4,0,0,0,0,0,0,1,0,0,0,0,0,0,713,18,732
86,1,412,22,113,0,1,26,0,0,0,3,0,0,1,0,0,0,0,0,0,0,1,0,0,0,0,0,0,0,0,0,580,3,583
87,0,290,52,83,0,0,33,0,0,0,5,0,0,2,0,1,0,0,0,0,1,0,0,0,0,0,1,1,0,1,0,470,7,477
88,0,260,17,81,0,1,10,0,0,0,0,0,0,2,0,0,0,1,0,0,0,0,0,0,1,0,0,0,0,0,0,373,1,374
89,0,201,16,73,1,0,15,0,0,0,2,0,1,2,0,0,0,1,0,0,1,0,0,0,1,0,0,0,0,0,0,314,4,318
90,1,263,29,103,0,0,30,0,0,0,2,0,0,0,0,0,0,1,0,0,1,0,0,0,0,0,0,0,0,0,0,430,10,441
91,0,310,18,14,0,1,19,0,0,0,0,1,0,2,0,0,0,0,0,0,1,0,0,0,2,0,0,0,0,0,0,368,2,371
92,1,196,13,119,0,0,18,0,0,1,0,0,1,0,0,0,1,1,0,0,0,0,0,0,1,2,0,0,0,0,0,354,10,364
93,0,193,9,111,2,1,13,0,0,0,0,0,0,0,0,0,0,0,0,0,0,1,0,0,0,0,1,0,0,0,1,332,11,343
94,1,325,19,116,1,0,17,0,0,0,2,1,0,4,0,0,0,0,0,0,0,0,3,0,0,0,0,0,0,1,0,490,9,499
95,1,343,42,144,0,0,39,0,0,0,4,0,0,1,0,2,0,1,0,0,0,0,1,0,0,0,0,0,1,0,0,579,9,590
96,0,302,41,20,0,0,4,0,0,0,2,1,0,1,0,0,1,5,1,1,2,0,1,0,1,2,0,0,0,1,1,387,1,390
97,5,290,40,123,2,2,25,0,0,0,0,0,0,3,0,1,0,0,0,0,0,0,0,0,0,0,0,0,0,0,1,492,7,499
98,0,747,48,33,1,0,22,0,0,1,1,0,0,1,0,0,0,0,0,0,2,0,0,0,1,0,0,0,0,0,2,859,6,865
99,1,619,51,42,2,1,29,0,0,0,0,1,0,1,0,1,0,0,0,0,0,0,0,0,0,1,0,0,0,0,0,749,4,754
100,1,470,39,87,1,1,37,0,0,1,3,0,0,1,1,0,0,1,0,0,0,0,1,0,1,0,0,0,0,0,0,645,10,655
101,2,633,8,45,0,0,18,0,0,0,4,0,1,2,0,0,0,0,0,0,0,0,0,0,0,0,1,0,0,0,0,714,6,720
102,2,600,69,35,1,1,35,1,0,1,2,0,2,0,0,0,1,0,0,0,0,0,0,1,0,0,0,0,0,0,0,751,6,757
103,2,688,43,35,0,0,33,1,0,0,2,1,0,1,0,1,0,1,0,0,0,0,0,0,0,0,1,0,0,0,2,811,4,815
104,1,630,8,2,0,1,11,0,0,0,1,1,0,0,1,0,0,0,0,0,1,0,1,0,0,0,0,0,0,0,0,658,4,662
105,0,644,52,14,1,0,31,0,0,0,2,0,1,1,0,0,1,1,0,0,0,0,0,0,1,0,0,0,1,0,0,750,3,753
106,17,598,44,31,1,0,30,2,0,0,1,0,0,5,0,1,1,0,1,1,1,0,0,0,0,1,0,0,0,1,2,738,6,743
107,3,526,27,24,0,1,11,0,0,0,1,1,1,3,0,1,0,1,0,0,0,0,0,0,0,0,0,0,0,0,0,600,0,600
108,0,434,16,8,0,0,6,1,0,0,2,1,0,1,0,0,0,0,0,0,0,0,0,0,0,1,0,0,0,0,0,470,4,474
109,2,372,11,10,0,0,13,0,0,0,1,0,0,2,0,0,0,1,0,0,1,0,0,0,0,0,0,0,0,0,0,413,3,417
110,6,449,152,56,1,3,83,1,0,1,4,1,1,5,0,2,0,2,0,0,2,1,0,1,1,0,0,0,0,1,0,773,6,780
111,1,230,18,88,1,0,19,0,0,0,2,2,0,0,0,0,0,0,0,0,0,0,0,0,0,0,0,0,0,0,0,361,4,365
112,0,446,22,33,0,0,30,0,0,0,8,2,1,3,0,1,2,0,0,0,1,0,0,0,0,0,0,0,0,0,0,549,6,556
113,0,467,28,70,0,0,26,0,1,0,1,0,0,1,2,0,0,2,1,1,1,1,0,0,1,0,0,0,0,0,0,603,11,613
114,8,447,148,57,1,1,75,0,0,0,3,2,4,6,10,3,2,10,1,1,3,2,1,0,1,1,2,0,0,3,1,793,8,807
115,0,93,9,28,0,0,15,0,0,0,0,0,0,2,0,0,0,0,1,1,0,0,0,0,0,0,0,0,0,0,0,149,3,151
116,3,594,62,61,0,2,39,0,0,0,2,1,0,8,1,0,2,0,0,0,0,0,0,1,0,0,0,0,1,0,0,777,10,787
117,0,446,15,91,0,0,14,0,0,1,0,0,0,0,0,0,0,1,0,0,0,1,0,1,0,0,1,0,0,0,0,571,10,581
118,4,466,35,50,0,0,18,1,0,0,1,1,1,4,1,1,2,4,0,0,0,1,0,1,1,0,1,0,1,0,0,594,6,601
119,1,224,4,5,0,0,8,0,0,0,0,2,0,0,0,0,0,1,0,0,0,0,0,0,0,0,0,1,0,0,2,248,3,251
120,0,184,19,285,0,0,9,0,0,0,1,1,0,3,1,0,0,1,0,0,1,0,1,0,0,0,0,0,0,3,0,509,8,517
121,0,149,6,321,1,1,5,0,0,1,1,0,1,0,0,3,0,1,0,0,0,0,0,0,0,1,0,0,1,1,0,493,5,500
122,2,102,9,363,0,0,8,0,0,0,0,0,0,1,0,0,0,1,0,0,1,0,0,0,0,0,1,0,3,0,0,491,3,494
123,4,378,73,147,0,0,26,0,0,0,2,1,1,4,0,0,1,0,1,1,0,1,0,0,0,0,0,1,1,1,1,644,6,649
124,1,186,17,359,0,1,11,0,0,0,0,0,0,1,0,1,0,0,0,0,0,0,0,0,1,1,0,0,0,0,0,579,10,589
125,2,229,10,351,1,0,8,0,0,0,0,0,0,2,1,1,1,0,1,1,1,0,0,0,0,0,1,0,0,0,0,610,3,612
126,1,118,14,255,1,0,7,0,0,0,0,0,0,1,1,0,2,0,0,0,2,0,0,0,0,1,0,0,0,1,0,404,7,412
127,2,112,17,383,1,1,7,3,0,0,0,2,0,0,0,2,1,1,3,3,0,0,0,0,1,0,0,0,0,2,0,541,5,543
128,0,175,9,293,2,0,3,0,0,0,0,0,0,1,0,0,1,0,0,0,1,0,0,0,0,0,1,0,0,0,0,486,4,491
129,0,53,4,340,2,2,0,0,0,0,0,0,0,0,0,0,1,3,0,0,0,0,1,0,0,1,0,1,0,1,0,409,11,420
130,2,141,5,290,1,1,10,0,0,0,0,1,0,0,0,0,0,0,0,0,0,0,0,0,0,0,0,0,0,0,0,451,2,453
131,1,101,12,328,2,1,15,0,0,0,0,0,0,1,0,0,0,1,3,3,0,0,1,0,0,0,0,0,0,1,0,470,9,476
132,1,123,21,64,0,0,16,0,0,1,0,0,0,0,0,0,0,0,0,0,0,0,0,0,0,0,0,0,0,0,0,226,5,231
133,2,421,80,70,2,1,33,1,0,1,2,1,0,4,2,0,1,1,1,1,1,0,0,1,0,1,0,0,0,1,2,630,9,642
134,1,116,9,380,2,1,4,0,0,0,1,0,0,2,0,0,0,1,0,0,0,0,0,0,0,1,0,0,1,0,0,519,9,528
135,10,751,93,21,0,0,72,0,0,0,5,1,1,4,0,3,0,4,0,0,0,0,0,0,0,0,0,1,0,0,0,966,6,972
136,5,600,79,23,0,0,61,0,0,0,3,2,0,5,0,0,1,4,1,1,1,0,0,0,0,0,0,0,0,0,0,786,5,790
137,3,657,97,24,1,1,52,0,0,0,0,1,3,3,2,0,2,6,1,1,0,0,0,1,0,0,0,0,0,1,0,856,7,863
138,1,69,6,221,0,0,2,0,0,0,0,1,0,0,0,0,2,0,0,0,0,0,0,0,0,0,0,0,0,0,0,302,5,307
139,1,103,12,267,0,0,7,0,0,1,0,2,0,1,1,0,1,1,1,1,0,0,0,0,1,0,0,0,0,0,2,402,8,409
140,0,54,1,202,0,0,1,1,0,0,1,0,0,0,0,0,0,1,0,0,0,0,0,0,0,0,0,0,0,0,0,261,4,265
141,0,199,20,387,1,0,25,1,0,0,1,0,0,1,0,0,3,1,0,0,1,0,0,1,0,0,0,0,0,0,0,641,6,647
142,0,72,4,336,0,0,6,0,0,0,0,3,0,1,0,0,0,0,0,0,0,0,0,0,0,0,0,0,0,0,0,422,7,429
143,0,101,14,306,0,0,2,0,0,0,0,0,0,0,0,0,0,0,0,0,0,0,0,0,0,0,1,0,0,0,1,425,7,432
144,0,133,13,245,2,0,10,0,0,0,0,1,0,0,2,0,1,0,0,0,0,0,0,0,0,0,0,0,0,0,0,407,6,413
145,0,164,18,309,0,0,9,1,0,0,0,0,0,2,1,0,0,0,1,1,0,0,0,0,0,0,0,0,0,0,0,506,5,510
146,3,154,30,316,3,0,6,0,0,0,1,1,1,0,0,1,1,0,1,1,1,0,1,0,0,0,0,1,0,1,0,523,7,529
147,9,317,54,16,0,0,34,1,1,0,0,2,1,4,2,0,0,2,0,0,1,0,0,0,2,0,0,0,0,0,4,450,5,456
148,3,264,65,10,0,1,25,0,0,0,1,0,1,1,0,0,0,0,0,0,0,0,0,0,0,0,0,0,0,0,0,371,1,372
149,0,132,13,194,0,0,13,0,1,0,1,0,0,3,1,0,1,1,0,0,0,0,0,0,1,0,0,0,0,0,1,362,2,364
150,3,249,35,33,0,1,16,0,2,0,2,2,0,0,0,0,0,0,0,0,0,1,0,0,1,0,0,0,0,0,2,347,2,349
151,2,282,18,217,1,0,32,0,0,0,3,2,0,2,1,0,0,0,1,1,2,0,0,0,1,0,0,0,1,0,0,566,10,575
152,0,144,22,177,1,1,10,0,0,1,1,1,0,1,1,1,1,0,1,1,0,0,1,1,0,0,0,0,0,0,0,366,9,374
153,0,105,6,234,0,1,2,0,0,0,0,0,0,0,0,0,1,0,0,0,1,0,0,0,0,0,0,0,0,0,0,350,6,356
154,0,159,17,330,0,1,13,0,0,0,0,0,0,0,0,1,0,0,1,1,0,0,0,0,0,0,0,0,0,0,0,523,6,528
155,0,135,14,231,0,0,24,0,0,0,0,0,0,1,0,0,0,1,1,1,0,0,0,0,0,0,0,0,0,0,0,408,4,411
156,0,85,7,186,1,0,4,0,0,0,1,0,0,1,0,0,0,0,0,0,0,0,0,0,0,0,0,0,0,0,0,285,3,288
157,1,37,5,300,0,0,0,0,0,0,0,1,0,0,0,0,0,0,1,1,0,0,0,1,0,0,0,0,0,0,0,347,4,350
158,1,165,10,106,0,0,3,0,0,0,0,1,0,0,0,0,2,1,0,0,1,0,0,1,0,0,0,0,0,0,0,291,6,297
159,2,65,1,208,0,0,1,0,0,0,0,0,0,0,0,0,0,0,0,0,0,0,0,0,0,0,0,0,0,0,0,277,1,278
160,2,371,61,60,0,0,23,0,0,0,1,0,0,1,0,0,1,3,0,0,0,0,0,0,0,0,0,1,0,0,0,524,4,529
161,1,314,58,156,0,0,36,0,0,0,1,1,0,1,2,1,0,2,0,0,0,0,0,0,0,0,1,0,0,0,0,574,5,581
162,0,122,12,272,0,0,9,0,0,0,1,0,0,0,1,0,0,0,1,1,0,0,0,0,0,0,0,0,0,0,0,419,7,425
163,2,214,27,6,0,0,11,0,0,0,0,0,0,7,2,0,0,0,0,0,0,0,0,0,0,0,0,0,0,1,0,270,1,271
164,0,297,22,12,0,0,40,0,0,1,0,1,1,1,0,1,0,3,1,1,1,0,0,0,0,0,0,0,0,1,1,384,3,386
165,2,405,72,30,0,1,58,0,0,1,4,0,1,4,2,0,0,2,0,0,2,1,1,1,0,0,1,0,0,0,1,589,5,595
166,2,152,20,7,0,0,19,1,0,0,1,1,0,5,1,0,0,1,0,0,0,0,0,0,0,0,0,0,0,0,0,210,2,212
167,1,216,35,10,1,0,13,0,0,1,2,0,1,2,0,1,0,3,2,2,0,0,0,0,0,0,0,0,1,0,1,292,0,290
168,4,419,45,16,0,1,73,0,0,0,2,2,0,3,0,0,0,5,1,1,1,0,0,0,0,0,0,0,0,1,0,574,9,583
169,3,502,67,23,2,0,34,1,1,0,0,0,1,1,1,0,1,0,1,1,0,0,1,1,1,0,0,0,1,0,0,643,7,649
170,0,605,31,72,0,1,26,0,0,0,3,1,0,1,0,0,0,0,0,0,0,0,1,0,0,0,0,0,0,0,0,741,5,746
171,0,646,79,51,0,1,33,0,0,1,3,1,0,3,0,2,1,2,0,0,2,0,0,1,0,0,2,0,0,0,1,829,6,836
172,2,495,29,87,0,0,23,0,0,0,3,4,0,1,1,0,2,0,0,0,1,0,0,0,3,0,0,0,0,0,1,652,1,654
173,2,483,54,84,0,1,24,0,0,0,2,0,0,1,0,0,0,0,0,0,0,1,0,1,0,0,1,0,0,0,0,654,11,665
174,0,454,23,67,1,0,17,0,0,0,1,0,0,0,0,0,0,1,0,0,0,0,0,0,0,0,0,0,1,0,1,566,3,570
