station_no,SEKARBABU. P.K,RAVIKUMAR. C,VINOJ. P. SELVAM,AHAMED FAZIL. M,SANTHANA KRISHNAN.,RAMESH. A,ANANDRAJ. T.K,UDHAYAKUMAR. V,GANESH. S,KAMAL. J,KRISHNAKUMAR. G,SHANKAR. A,CHANDRAN. R,SIVARAMAN. G,ZIONRAJ. M,SURESH. R,SELVAM. P,SELVAKUMAR. R,SELVARAJ. S,DAMODHARAN. A.G,NAGARAJ. S,PUGALENTHI. P,MAHALINGAM. D,RAGHUNATH. K,RAMESH. D,RAMKI. P,VIVEK RAM. A,SRINIVASAN. P,nota,rejected,total,total_valid
1,191,1,113,13,1,26,0,1,0,0,0,0,0,0,0,1,1,0,0,1,0,0,0,0,0,0,0,0,5,0,354,349
2,3,4,5,6,7,8,9,10,11,12,13,14,15,16,17,18,19,20,21,22,23,24,25,26,27,28,29,30,33,32,34,31
2,304,2,154,13,3,35,0,1,0,0,0,0,0,1,0,0,0,0,0,0,0,0,0,0,0,0,0,0,4,0,517,513
2,3,4,5,6,7,8,9,10,11,12,13,14,15,16,17,18,19,20,21,22,23,24,25,26,27,28,29,30,33,32,34,31
2,3,4,5,6,7,8,9,10,11,12,13,14,15,16,17,18,19,20,21,22,23,24,25,26,27,28,29,30,33,32,34,31
2,3,4,5,6,7,8,9,10,11,12,13,14,15,16,17,18,19,20,21,22,23,24,25,26,27,28,29,30,33,32,34,31
2,3,4,5,6,7,8,9,10,11,12,13,14,15,16,17,18,19,20,21,22,23,24,25,26,27,28,29,30,33,32,34,31
3,183,4,342,13,4,30,0,0,1,0,1,0,0,0,0,0,0,0,0,0,0,0,0,1,0,0,0,0,7,0,586,579
4,100,0,212,2,1,12,0,0,1,0,0,0,0,1,0,0,0,0,0,0,0,1,1,0,0,0,1,0,3,0,335,332
5,111,2,190,11,0,10,0,0,0,0,0,0,0,0,0,0,0,0,0,0,0,0,0,0,0,0,0,0,8,0,332,324
6,272,0,235,18,8,43,0,0,1,0,0,0,0,0,0,0,4,0,0,0,0,0,0,0,0,1,1,0,8,0,591,583
7,146,0,147,7,4,27,0,0,0,0,0,0,0,0,0,0,0,0,0,0,0,0,0,0,0,0,0,0,4,0,335,331
8,80,0,112,7,6,15,0,0,0,0,0,0,0,0,0,1,0,0,0,0,0,0,1,0,0,0,0,0,3,0,225,222
9,143,1,167,16,2,15,0,0,1,0,0,0,0,0,0,0,0,0,0,0,0,0,0,0,0,0,2,0,2,0,349,347
10,216,1,240,22,3,26,0,0,1,0,0,0,0,0,0,0,1,0,0,0,0,1,0,0,0,1,0,0,8,0,520,512
11,150,5,251,16,2,20,0,0,0,0,0,0,0,1,0,0,0,0,0,0,0,0,0,0,0,0,0,0,5,0,450,445
12,151,0,210,13,4,13,0,1,0,0,0,0,0,0,0,0,0,0,0,0,0,0,0,0,0,0,0,0,3,0,395,392
13,140,4,342,11,1,8,0,0,0,0,0,0,0,1,1,0,2,0,1,0,0,0,0,0,0,0,1,0,7,0,519,512
14,118,1,255,6,1,11,0,0,0,0,0,0,0,0,0,0,1,0,0,0,0,0,0,0,0,0,0,0,6,0,399,393
15,78,4,366,6,1,12,0,0,0,0,1,1,0,0,0,1,0,0,1,0,0,0,0,0,0,0,0,0,6,0,477,471
16,84,2,329,8,0,16,0,0,0,0,0,0,0,0,0,0,0,0,0,0,0,0,0,0,0,0,0,0,10,0,449,439
17,74,1,221,3,1,8,0,0,0,0,0,0,0,0,0,1,0,0,0,0,0,0,0,0,0,1,0,0,4,0,314,310
18,66,3,251,4,0,3,0,0,0,0,0,0,0,0,0,0,0,0,0,0,0,0,0,0,0,0,2,0,5,0,334,329
19,388,4,102,12,1,6,0,0,1,0,0,1,1,0,0,1,3,0,1,0,0,0,0,0,0,0,1,0,1,0,523,522
20,145,0,254,15,0,15,0,0,0,2,0,0,0,0,0,0,0,0,0,0,0,0,0,0,0,0,2,1,1,0,435,434
21,226,4,144,16,6,21,0,0,0,0,0,0,0,0,0,0,0,0,0,0,0,0,0,0,0,0,1,0,1,0,419,418
22,113,2,127,11,3,22,0,0,0,1,0,0,0,0,0,1,0,0,0,0,0,0,0,0,0,0,0,0,4,0,284,280
23,245,0,186,18,2,29,0,0,3,1,0,0,0,1,0,2,0,0,0,0,0,0,0,0,0,0,1,0,5,0,493,488
24,138,2,195,8,2,15,0,1,0,0,0,0,0,0,0,0,3,0,0,0,0,0,0,0,0,0,0,0,5,0,369,364
25,75,2,252,7,1,11,0,0,0,0,0,0,0,0,0,1,0,0,0,0,0,0,0,0,0,0,0,0,5,0,354,349
26,289,1,86,11,1,15,0,0,0,0,0,0,0,0,1,0,3,0,0,0,0,1,0,0,0,0,0,0,4,0,412,408
27,130,1,260,9,3,10,0,0,0,0,0,0,0,0,0,0,0,0,1,0,0,0,0,1,0,0,0,0,5,0,420,415
28,154,1,226,9,1,23,0,1,0,0,0,0,0,0,0,2,0,0,0,0,0,0,0,0,0,0,0,0,4,0,421,417
29,299,2,95,12,2,18,0,0,0,0,0,0,0,0,0,0,0,0,0,0,0,0,0,0,0,0,1,0,5,0,434,429
30,400,7,71,25,6,5,0,0,0,0,0,0,0,0,1,0,3,0,1,0,0,0,0,0,0,1,2,0,1,0,523,522
31,169,4,288,20,2,15,0,0,1,0,0,0,0,0,0,0,1,0,0,1,0,0,0,0,0,0,0,1,1,0,503,502
32,103,2,257,10,1,10,0,1,0,0,0,0,0,0,0,1,0,1,0,0,0,0,0,0,0,1,1,0,4,0,392,388
33,298,2,229,20,0,22,0,0,1,0,0,0,0,0,0,0,2,0,1,0,0,0,0,0,0,0,0,0,3,0,578,575
34,96,1,381,3,1,19,0,0,0,0,1,0,0,0,0,0,0,0,0,0,0,0,0,0,0,0,0,0,10,0,512,502
35,89,3,281,2,0,12,0,0,0,0,0,1,0,0,0,0,2,0,1,0,0,0,0,0,0,0,0,0,6,0,397,391
36,98,6,218,6,1,10,0,0,0,0,0,0,0,0,0,1,0,0,1,0,0,0,0,0,0,0,1,0,3,0,345,342
37,95,2,277,5,0,7,0,0,0,1,0,0,0,0,0,0,1,0,1,0,0,1,0,0,0,0,0,0,3,0,393,390
38,193,0,176,32,3,29,0,0,0,0,0,0,0,1,0,0,1,0,0,0,0,0,0,0,0,0,0,0,6,0,441,435
39,285,1,26,12,2,13,0,0,2,0,0,1,0,0,0,0,1,0,0,0,0,0,0,0,0,0,0,0,0,0,343,343
40,397,1,25,16,3,19,0,0,0,0,0,0,0,0,0,0,0,0,0,0,0,0,0,0,0,0,0,0,6,0,467,461
41,333,1,127,26,4,40,0,0,0,1,0,0,0,0,0,1,2,0,0,0,0,0,0,0,0,0,0,0,6,0,541,535
42,274,1,48,21,5,22,0,0,0,0,0,0,0,1,0,0,1,0,0,0,0,0,0,0,0,0,1,0,5,0,379,374
43,340,7,69,34,6,19,0,0,1,0,0,0,0,0,0,1,3,0,1,0,0,0,0,0,0,0,1,1,5,0,488,483
44,298,1,119,21,3,28,1,0,1,0,0,0,0,0,0,0,0,0,0,1,0,0,0,0,0,0,0,0,2,0,475,473
45,325,1,90,10,2,34,1,0,0,0,0,0,0,0,0,0,1,0,0,0,0,0,0,0,1,0,1,1,8,0,475,467
46,305,4,204,20,8,36,0,0,0,0,0,0,0,0,0,0,3,0,0,0,0,1,0,0,0,1,0,0,10,0,592,582
47,216,2,91,22,3,21,0,0,0,0,0,0,0,0,0,0,0,0,0,0,0,0,0,0,0,0,0,0,7,0,362,355
48,232,1,43,20,1,21,0,0,0,0,0,0,0,0,0,1,2,0,0,0,0,0,0,0,0,0,1,0,8,0,330,322
49,338,1,83,19,3,28,0,0,0,0,1,0,0,0,0,0,1,0,0,0,0,0,0,0,0,1,1,0,2,0,478,476
50,236,1,100,14,5,14,0,0,0,0,0,0,0,0,0,0,0,0,0,0,0,0,0,0,0,0,0,0,2,0,372,370
51,223,0,93,8,2,16,0,0,0,0,0,1,0,0,0,0,2,0,0,0,0,0,0,0,0,0,0,0,2,0,347,345
52,148,0,249,10,2,15,0,0,1,1,0,1,0,0,0,0,0,0,0,0,0,0,0,0,0,0,1,0,6,0,434,428
53,113,0,232,7,4,6,0,0,0,0,0,0,0,0,0,0,0,1,0,0,0,0,0,0,0,0,0,0,9,0,372,363
54,348,3,60,22,6,8,0,0,0,0,0,0,0,1,0,0,0,0,0,0,0,0,0,0,0,0,1,0,2,0,451,449
55,334,0,56,14,3,11,0,0,0,0,0,0,0,0,0,1,0,0,0,0,0,0,0,0,0,0,0,0,0,0,419,419
56,108,1,291,10,5,7,1,0,0,0,0,0,0,0,0,0,1,0,1,0,0,0,0,0,0,0,0,0,3,0,428,425
57,379,0,170,13,9,7,0,0,0,0,0,0,0,1,0,2,1,1,0,0,0,0,0,0,0,0,0,0,3,0,586,583
58,190,0,141,15,8,11,1,0,0,0,0,0,0,0,0,0,1,1,0,0,0,1,0,0,0,0,0,0,6,0,375,369
59,305,0,29,14,1,10,0,0,0,0,0,0,0,0,0,0,0,0,0,0,0,0,0,0,0,0,0,0,0,0,359,359
60,65,1,207,8,2,4,0,0,1,0,0,0,0,1,0,0,2,0,0,0,0,0,0,0,0,0,0,0,3,0,294,291
61,149,1,178,8,3,11,0,0,0,1,0,0,0,0,0,0,0,0,0,0,0,0,0,0,0,0,1,0,4,0,356,352
62,538,1,67,34,2,11,0,0,0,0,0,0,0,0,0,0,3,0,1,0,0,0,0,0,0,0,1,0,3,0,661,658
63,259,1,100,7,4,10,0,0,0,0,0,0,0,0,0,0,2,0,0,0,0,0,0,0,0,0,2,0,4,0,389,385
64,325,1,9,10,2,7,0,0,1,0,0,0,0,0,0,0,0,0,0,0,0,0,0,0,0,0,1,0,2,0,358,356
65,238,0,148,15,3,13,1,0,0,2,0,0,0,0,0,0,1,0,0,1,0,0,0,0,0,0,0,0,4,0,426,422
66,417,0,10,13,0,5,0,0,0,0,0,0,0,0,0,0,1,1,0,0,0,0,1,0,0,0,2,0,3,0,453,450
67,100,0,13,12,0,8,0,0,0,0,0,0,0,0,0,0,1,0,1,0,0,0,0,0,0,0,0,0,0,0,135,135
68,315,0,14,17,1,8,0,0,0,0,0,0,0,0,0,0,2,1,0,0,0,0,0,0,0,0,2,0,1,0,361,360
69,282,0,54,17,2,10,0,0,0,1,0,0,0,0,0,0,0,0,0,0,0,1,0,0,1,0,0,0,2,0,370,368
70,286,0,46,23,3,18,1,0,0,0,0,0,0,0,0,0,1,0,0,0,0,0,0,0,0,0,0,0,2,0,380,378
71,450,4,48,31,6,14,0,0,0,0,0,1,1,0,0,0,0,0,0,0,0,0,0,0,0,0,2,0,3,0,560,557
72,219,2,66,25,8,24,0,0,0,0,0,0,0,0,0,0,0,0,0,0,0,0,0,0,0,0,0,0,5,0,349,344
73,226,0,43,28,2,29,0,0,0,0,0,0,0,0,0,0,0,0,0,0,0,0,0,0,0,0,0,0,2,0,330,328
74,331,1,74,18,4,20,0,0,0,0,1,0,0,0,0,0,1,0,1,0,0,0,0,0,0,0,2,1,2,0,456,454
75,364,3,107,19,1,41,0,0,1,0,0,0,0,0,1,0,4,0,0,1,0,0,0,0,0,1,1,0,4,0,548,544
76,191,0,63,9,3,28,0,0,0,0,0,1,0,0,0,0,0,0,0,0,0,0,0,0,0,1,0,0,3,0,299,296
77,234,0,72,18,4,8,0,0,0,0,0,0,0,0,0,0,0,1,0,0,0,0,0,0,0,0,0,0,2,0,339,337
78,209,1,79,20,0,30,0,0,0,1,0,0,0,0,0,0,0,0,0,0,0,0,0,0,0,0,0,0,3,0,343,340
79,227,0,73,20,2,31,0,0,0,1,0,0,0,1,0,0,5,0,0,0,0,0,1,0,0,0,3,0,2,0,366,364
80,258,1,34,12,0,12,0,1,0,0,0,0,0,0,0,0,0,0,0,0,0,0,0,0,0,0,0,0,5,0,323,318
81,187,0,61,20,3,7,0,0,0,0,2,0,0,1,0,0,1,0,0,0,0,0,0,1,0,1,0,0,2,0,286,284
82,363,0,42,24,3,14,0,0,0,0,0,0,0,0,0,0,0,0,0,0,0,0,0,0,0,0,0,0,0,0,446,446
83,245,1,72,19,9,12,0,0,0,1,0,0,0,0,0,0,0,0,0,0,0,0,0,0,0,0,0,0,4,0,363,359
84,259,7,94,35,7,14,0,0,0,0,0,0,0,0,0,0,1,0,0,0,0,0,1,0,0,0,2,0,0,0,420,420
85,309,1,52,26,6,11,0,0,0,0,0,0,0,0,0,0,0,0,0,0,0,0,0,0,0,0,0,0,4,0,409,405
86,271,1,80,32,5,20,0,0,0,0,0,0,0,0,0,0,1,0,0,0,0,0,0,0,0,0,0,0,8,0,418,410
87,262,0,62,22,0,9,0,1,0,0,0,0,0,0,0,0,1,0,0,0,0,0,0,0,0,0,0,0,2,0,359,357
88,297,1,135,26,0,28,0,1,0,0,0,1,0,0,0,0,2,0,0,1,0,0,0,0,0,0,1,0,7,0,500,493
89,245,1,83,20,10,23,0,0,0,0,0,0,0,0,0,0,1,0,0,0,0,0,0,0,0,0,0,0,8,0,391,383
90,231,0,73,18,4,20,0,0,0,0,0,0,0,0,0,0,0,0,0,0,0,0,0,0,0,0,0,0,7,0,353,346
91,313,2,91,29,7,27,0,0,0,0,0,0,0,0,0,0,1,0,0,0,0,0,0,0,0,0,0,0,10,0,480,470
92,353,1,25,20,2,14,0,0,0,0,0,0,0,0,1,0,0,0,0,0,0,0,0,0,0,0,0,0,1,0,417,416
93,235,0,121,17,3,24,0,0,1,1,0,0,0,0,0,0,0,1,0,0,0,0,0,0,0,0,0,0,7,0,410,403
94,212,1,137,9,3,25,0,0,0,0,0,0,0,0,0,0,0,0,1,0,0,0,0,0,0,0,1,0,4,0,393,389
95,331,0,101,16,2,31,0,0,0,0,0,0,0,0,0,1,0,0,0,0,0,0,0,0,0,0,2,0,6,0,490,484
96,395,3,128,34,3,66,0,0,2,0,0,0,0,0,0,2,6,3,0,0,0,0,0,0,0,1,0,0,9,0,652,643
97,297,4,92,6,4,9,0,0,0,0,0,0,0,0,0,1,3,0,1,0,0,0,0,0,0,0,1,0,3,0,421,418
98,170,2,77,14,2,30,0,0,0,0,0,1,0,0,0,0,0,0,0,0,0,1,0,0,0,0,0,0,2,0,299,297
99,286,1,85,16,7,19,0,0,0,0,0,0,0,0,0,0,0,0,1,0,0,0,0,0,0,1,0,0,1,0,417,416
100,294,2,58,9,3,10,0,0,0,0,0,0,0,0,0,0,0,0,0,0,0,0,0,0,0,0,0,0,0,0,376,376
101,264,0,60,13,3,25,0,0,0,1,0,0,0,0,0,0,1,0,0,0,0,0,0,0,0,0,0,0,3,0,370,367
102,350,0,21,17,3,8,0,0,0,0,0,0,0,0,0,0,2,0,0,0,0,0,0,0,0,0,1,0,0,0,402,402
103,334,2,52,21,6,21,1,0,0,0,0,0,0,0,0,0,0,0,0,0,0,1,0,0,0,0,1,0,1,0,440,439
104,364,1,36,14,7,9,0,0,0,0,0,0,0,0,0,0,0,0,0,0,0,0,0,0,0,0,0,0,0,0,431,431
105,327,1,2,8,5,4,0,0,0,0,0,0,0,0,0,0,0,0,0,0,0,0,0,0,0,0,0,0,2,0,349,347
106,354,0,28,15,3,4,0,0,0,0,0,0,0,0,0,0,0,1,0,0,0,0,0,0,0,0,0,0,2,0,407,405
107,335,8,37,25,1,11,0,0,0,0,0,0,0,0,0,0,0,0,0,0,0,0,0,0,0,1,0,0,3,0,421,418
108,283,2,23,7,4,1,0,0,0,0,0,0,0,0,0,1,1,0,0,0,0,0,0,0,0,0,1,0,2,0,325,323
109,522,2,19,18,9,0,0,0,0,0,0,1,0,0,0,0,6,0,0,0,0,0,0,0,0,0,2,0,0,0,579,579
110,419,2,12,9,1,3,0,0,1,0,0,0,0,0,0,0,1,0,0,0,0,0,0,0,0,0,1,0,1,0,450,449
111,213,0,98,42,1,5,0,0,0,0,0,0,1,0,0,1,1,1,0,0,0,0,0,0,0,0,0,0,0,0,363,363
112,238,2,91,18,2,33,0,1,0,0,0,0,0,1,0,0,0,0,0,0,0,0,0,0,0,0,0,0,4,0,390,386
113,255,1,38,11,3,12,0,0,0,0,0,0,0,0,0,0,0,0,0,0,0,0,0,0,0,0,0,0,1,0,321,320
114,275,1,47,14,1,13,0,0,1,0,0,0,0,0,0,0,0,0,1,0,0,0,0,0,0,0,0,0,4,0,357,353
115,208,3,95,18,13,5,1,0,1,0,0,1,0,1,0,2,2,0,0,0,1,0,0,0,0,0,1,0,4,0,356,352
116,101,0,18,17,1,15,0,0,1,0,0,1,0,0,0,0,0,0,0,0,0,0,0,0,0,0,1,0,1,0,156,155
117,304,1,39,11,2,10,0,0,1,0,0,0,0,0,0,0,0,0,0,0,0,0,0,0,0,0,0,0,4,0,372,368
118,244,0,45,15,2,4,0,0,0,0,0,0,0,0,0,0,0,0,0,0,0,0,0,0,0,0,1,0,2,0,313,311
119,233,2,40,9,6,10,0,0,0,0,0,0,0,0,0,0,1,1,0,0,0,0,0,0,0,1,2,0,4,0,309,305
120,219,0,3,10,0,4,0,0,0,1,0,0,0,0,0,0,0,0,0,0,0,0,0,0,0,0,0,0,0,0,237,237
121,216,0,296,6,8,21,0,1,1,0,0,0,0,0,0,0,0,0,1,0,0,0,0,0,0,0,1,0,8,0,559,551
122,154,3,348,4,2,10,0,0,0,0,0,0,0,0,0,0,2,0,0,0,0,0,1,0,0,0,1,0,7,0,532,525
123,84,0,249,2,1,13,0,0,0,0,0,0,0,0,0,0,1,1,0,0,1,0,0,0,0,0,0,0,7,0,359,352
124,247,0,107,17,1,16,1,0,1,0,0,0,0,0,0,0,0,0,0,0,0,0,0,0,0,0,0,0,5,0,395,390
125,108,0,259,7,1,9,0,0,0,0,0,0,0,0,0,0,0,0,0,0,0,0,0,0,0,0,0,1,6,0,391,385
126,162,3,229,9,1,9,0,0,0,0,0,0,0,0,0,0,0,0,0,0,0,0,0,0,0,0,0,0,2,0,415,413
127,166,2,297,10,3,10,0,0,1,0,0,1,1,0,1,0,0,0,0,1,0,0,0,0,0,1,1,0,7,0,502,495
128,85,3,286,4,0,5,0,0,0,0,0,1,0,0,0,1,0,0,1,0,0,0,0,0,0,0,0,0,7,0,393,386
129,168,6,337,2,1,8,0,0,1,0,0,0,0,1,0,0,1,0,1,0,0,0,0,0,1,0,1,1,7,0,536,529
130,52,6,267,3,1,2,0,0,1,0,0,0,0,0,0,0,1,0,0,0,0,0,0,0,0,0,0,0,5,0,338,333
131,99,0,271,5,0,5,0,0,0,0,0,0,0,0,0,0,0,0,0,0,0,0,0,0,0,0,0,0,4,0,384,380
132,84,6,248,5,1,3,0,0,0,0,0,0,0,0,0,0,0,0,0,0,0,0,0,0,0,0,0,0,6,0,353,347
133,143,0,75,8,3,13,0,1,1,0,1,0,0,0,0,1,0,0,0,0,0,1,0,0,0,0,0,0,7,0,254,247
134,271,1,92,20,2,11,0,1,0,0,0,0,0,0,0,0,0,0,0,0,0,0,0,0,0,0,0,0,2,0,400,398
135,85,3,239,6,0,12,0,1,1,1,0,0,1,0,0,0,0,1,0,0,0,0,0,0,0,0,0,0,4,0,354,350
136,332,7,56,26,12,13,0,0,0,0,0,0,0,0,0,0,0,0,0,0,0,0,0,0,0,0,0,0,1,0,447,446
137,276,0,55,20,1,12,0,0,0,0,0,0,0,0,0,0,0,0,0,0,0,0,0,0,0,0,0,0,1,0,365,364
138,328,0,47,23,10,6,0,0,0,0,0,0,0,0,0,2,0,0,0,0,0,0,0,0,0,0,0,0,1,0,417,416
139,106,3,268,2,0,11,0,0,0,1,1,0,1,0,0,0,0,0,0,0,0,0,0,0,0,0,0,0,10,0,403,393
140,120,1,294,4,1,8,0,0,1,0,0,0,0,0,0,0,2,1,0,0,0,0,0,1,0,0,2,0,7,0,442,435
141,85,0,203,1,1,3,0,0,0,0,0,0,0,1,0,0,0,0,0,0,0,1,0,0,0,0,1,0,4,0,300,296
142,131,0,253,12,1,17,0,1,0,0,0,0,0,0,0,0,0,0,0,0,1,0,1,0,0,0,0,0,8,0,425,417
143,93,0,345,3,0,8,0,1,0,0,0,0,0,0,0,1,2,0,1,0,0,0,0,0,0,1,1,0,4,0,460,456
144,147,2,342,2,0,13,1,0,0,0,0,2,0,0,0,1,0,1,0,0,0,0,0,0,0,0,1,0,7,0,519,512
145,152,1,248,4,5,9,0,0,0,0,0,1,0,0,0,0,0,0,0,0,0,0,0,0,0,0,1,0,10,0,431,421
146,115,1,196,10,1,7,0,0,0,0,0,0,0,1,0,0,0,0,0,0,0,0,0,0,0,0,1,0,1,0,333,332
147,120,2,183,4,0,1,0,0,0,0,0,1,0,0,0,0,0,0,0,1,0,0,0,0,0,0,0,0,4,0,316,312
148,350,8,63,19,7,22,0,0,1,0,0,1,1,1,0,0,1,1,0,0,0,0,0,0,1,0,0,0,1,0,477,476
149,316,4,49,20,2,11,0,0,1,0,0,0,0,2,0,2,4,0,0,0,0,1,0,0,0,0,1,0,3,0,416,413
150,171,0,248,12,0,9,1,0,0,0,0,0,0,0,0,0,0,0,0,0,0,0,0,0,0,1,0,0,3,0,445,442
151,260,6,43,8,2,10,0,0,0,0,0,0,0,0,1,1,0,0,0,0,0,0,0,0,0,0,0,0,4,0,335,331
152,168,2,142,25,3,10,0,0,0,0,0,0,0,0,0,0,0,0,0,0,0,0,0,0,0,0,0,0,4,0,354,350
153,193,2,224,19,1,18,0,0,0,0,0,0,0,0,0,1,0,0,1,1,0,0,0,0,0,0,2,0,4,0,466,462
154,111,11,268,5,1,20,1,1,1,1,1,0,0,1,0,0,1,0,0,1,0,0,0,0,0,0,0,0,5,0,429,424
155,112,3,259,4,7,25,0,0,0,1,0,0,0,0,0,0,0,1,0,0,0,0,0,0,0,0,0,1,4,0,417,413
156,190,6,311,19,0,34,0,0,0,1,1,0,0,0,0,0,0,0,1,0,1,0,1,0,0,0,0,0,4,0,569,565
157,99,2,222,7,2,19,0,0,0,0,0,0,0,0,0,0,0,1,1,0,0,0,0,0,1,0,0,0,7,0,361,354
158,68,1,321,0,2,5,0,0,0,0,0,1,0,0,0,0,2,1,0,1,0,0,0,2,0,0,3,1,7,0,415,408
159,192,2,142,10,2,16,0,0,0,0,0,0,1,0,0,0,2,1,0,0,0,0,0,0,0,0,2,0,1,0,371,370
160,79,5,250,2,1,11,0,0,0,0,0,0,0,1,0,0,1,0,0,0,0,0,0,0,0,0,0,0,6,0,356,350
161,376,5,110,13,4,15,0,0,1,0,0,1,0,0,0,1,1,0,0,0,0,0,0,0,0,1,0,0,0,0,528,528
162,314,3,185,7,5,9,0,0,2,0,0,0,0,1,0,2,2,0,0,0,0,0,0,0,0,0,0,1,2,0,533,531
163,104,5,222,6,3,7,0,0,0,0,0,0,0,0,0,0,2,0,0,0,0,0,0,0,0,0,0,0,3,0,352,349
164,168,0,25,16,2,8,0,0,0,0,0,0,1,1,0,1,6,0,0,1,0,1,0,0,0,0,1,1,1,0,233,232
165,311,0,35,27,0,6,0,0,0,0,0,0,0,0,0,1,4,0,0,0,0,0,0,0,0,1,1,0,4,0,390,386
166,467,1,68,38,16,10,0,0,0,0,0,0,0,0,0,0,4,0,0,0,0,1,0,0,0,0,0,0,0,0,605,605
167,218,1,32,36,8,5,0,0,0,0,0,0,0,0,0,3,2,1,0,0,0,0,0,0,0,0,0,0,2,0,308,306
168,271,0,48,26,3,2,0,0,0,0,0,0,0,0,0,2,2,0,1,0,0,0,0,0,0,1,0,0,2,0,358,356
169,64,0,3,8,1,1,0,0,0,0,0,0,0,0,0,0,0,0,0,0,0,0,0,0,0,0,0,0,1,0,78,77
170,15,0,1,2,1,0,0,0,0,0,0,0,0,0,0,0,0,0,0,0,0,0,0,0,0,0,0,0,0,0,19,19
171,596,2,95,39,6,17,0,0,1,1,0,0,0,0,0,2,2,0,2,0,0,0,0,0,0,0,0,1,2,0,766,764
172,460,4,64,64,5,7,1,0,0,0,0,0,0,0,0,1,0,0,0,0,0,0,0,1,0,0,0,0,9,0,616,607
173,358,1,50,30,4,16,0,0,0,0,0,0,0,0,0,0,0,0,0,0,0,0,0,0,0,0,1,0,7,0,467,460
174,321,0,63,17,2,16,0,0,0,0,0,0,0,0,0,0,0,0,0,0,0,0,0,0,0,0,0,0,2,0,421,419
175,307,0,46,24,5,18,0,0,0,0,0,0,0,0,0,1,2,0,0,0,0,0,0,0,0,0,1,0,0,0,404,404
176,469,3,105,33,5,40,0,0,2,0,0,0,0,0,0,1,1,0,2,0,0,0,0,0,0,0,5,0,7,0,673,666
177,339,0,54,32,2,22,0,0,1,0,0,0,0,0,0,0,0,0,0,0,0,0,0,0,0,0,0,0,0,0,450,450
